x(m),y(m),z(m),zRelative(m),heading(rad),t(s),s(m/s),a(m/s²),Δd(m),d(m)
729022.23,4372401.38,70.09,10.0,6.2339670222733465,0,0.078,0.0,0.000,0.000
729022.22,4372401.37,70.09,10.0,6.233792489348147,0.459823449,0.114,0.0,0.014,0.014
729022.2,4372401.35,70.09,10.0,6.232745291796951,0.689890235,0.261,0.0,0.028,0.042
729022.18,4372401.28,70.08,9.99,6.232745291796951,0.955529377,0.492,0.0,0.073,0.115
729022.12,4372401.15,70.08,9.99,6.2339670222733465,1.190436303,0.731,0.0,0.143,0.258
729022.05,4372400.97,70.08,9.99,6.235014219824543,1.425602091,0.936,0.0,0.193,0.452
729021.96,4372400.75,70.08,9.99,6.235712351525341,1.663673165,1.085,0.0,0.238,0.689
729021.85,4372400.49,70.08,9.99,6.2348396868993445,1.902334949,1.227,0.0,0.282,0.972
729021.74,4372400.21,70.08,9.99,6.230476363769358,2.16208177,1.37,0.0,0.301,1.272
729021.61,4372399.9,70.08,9.99,6.150191218177619,2.393598409,1.546,0.0,0.336,1.609
729021.48,4372399.53,70.08,9.99,5.918586026437971,2.629629005,1.749,0.0,0.392,2.001
729021.36,4372399.11,70.08,9.99,5.588369731960644,2.863032685,1.938,0.0,0.437,2.438
729021.23,4372398.64,70.08,9.99,5.2333697621049975,3.095212205,2.137,0.0,0.488,2.925
729021.08,4372398.14,70.08,9.99,4.907691323682855,3.362455265,2.337,0.0,0.522,3.447
729020.9,4372397.58,70.08,9.99,4.62931130798976,3.596988455,2.555,0.0,0.588,4.035
729020.68,4372396.99,70.08,9.99,4.39543718822252,3.829313443,2.768,0.0,0.63,4.665
729020.43,4372396.35,70.09,10.0,4.181808887778414,4.056789753,2.988,0.0,0.687,5.352
729020.16,4372395.67,70.09,10.0,3.9627700666531256,4.316129935,3.2,0.0,0.732,6.084
729019.87,4372394.94,70.08,9.99,3.722438228653506,4.545721181,3.42,0.0,0.785,6.869
729019.58,4372394.15,70.08,9.99,3.482455456504286,4.784752005,3.641,0.0,0.842,7.711
729019.26,4372393.32,70.08,9.99,3.3496359004275176,5.020045151,3.877,0.0,0.89,8.6
729018.88,4372392.44,70.08,9.99,3.355220954033899,5.255829973,4.116,0.0,0.959,9.559
729018.44,4372391.54,70.08,9.99,3.4412656861572195,5.528491714,4.338,0.0,1.002,10.561
729017.96,4372390.6,70.08,9.99,3.5409239864460957,5.765935964,4.544,0.0,1.055,11.616
729017.46,4372389.62,70.08,9.99,3.598868917612308,6.00052277,4.755,0.0,1.1,12.716
729016.99,4372388.57,70.08,9.99,3.5971235883603128,6.237426552,4.967,0.0,1.15,13.867
729016.54,4372387.46,70.08,9.99,3.5571555484896433,6.470160036,5.16,0.0,1.198,15.065
729016.09,4372386.31,70.09,10.0,3.5128241854889874,6.731563582,5.333,0.0,1.235,16.299
729015.63,4372385.12,70.09,10.0,3.4883895759610666,6.962055695,5.5,0.0,1.276,17.575
729015.14,4372383.89,70.09,10.0,3.4896113064374625,7.194488382,5.674,0.0,1.324,18.899
729014.62,4372382.63,70.09,10.0,3.5068900660322067,7.422366066,5.837,0.0,1.363,20.262
729014.08,4372381.33,70.09,10.0,3.526088687804144,7.657700963,5.998,0.0,1.408,21.67
729013.53,4372379.99,70.09,10.0,3.5362115974657113,7.926998867,6.161,0.0,1.448,23.119
729012.99,4372378.62,70.09,10.0,3.535687998690113,8.165592405,6.303,0.0,1.473,24.591
729012.44,4372377.22,70.09,10.0,3.528357615831737,8.402500166,6.449,0.0,1.504,26.095
729011.89,4372375.77,70.09,10.0,3.5208527000481613,8.635302266,6.589,0.0,1.551,27.646
729011.33,4372374.31,70.09,10.0,3.5170129756937736,8.86644124,6.719,0.0,1.564,29.21
729010.76,4372372.8,70.09,10.0,3.51823470617017,9.130166859,6.847,0.0,1.614,30.824
729010.17,4372371.25,70.09,10.0,3.5222489634497562,9.359902879,6.981,0.0,1.658,32.482
729009.57,4372369.69,70.09,10.0,3.5267868195049417,9.591380263,7.102,0.0,1.671,34.154
729008.96,4372368.08,70.09,10.0,3.5295793463081324,9.827579763,7.196,0.0,1.722,35.875
729008.35,4372366.46,70.09,10.0,3.530102945083731,10.064040551,7.287,0.0,1.731,37.606
729007.73,4372364.84,70.09,10.0,3.529404813382933,10.324519074,7.35,0.0,1.735,39.341
729007.12,4372363.18,70.09,10.0,3.5285321487569363,10.558787901,7.404,0.0,1.769,41.11
729006.49,4372361.52,70.09,10.0,3.528183082906537,10.795956385,7.439,0.0,1.776,42.885
729005.87,4372359.85,70.09,10.0,3.5290557475325346,11.034856151,7.471,0.0,1.781,44.666
729005.24,4372358.17,70.09,10.0,3.530626543859329,11.271178277,7.484,0.0,1.794,46.461
729004.61,4372356.48,70.09,10.0,3.5320228072609248,11.535941555,7.488,0.0,1.804,48.264
729003.98,4372354.79,70.09,10.0,3.5330700048121213,11.767656889,7.475,0.0,1.804,50.068
729003.35,4372353.11,70.09,10.0,3.5335936035877196,11.999647097,7.452,0.0,1.794,51.862
729002.73,4372351.43,70.09,10.0,3.533942669438119,12.22696769,7.421,0.0,1.791,53.653
729002.11,4372349.76,70.09,10.0,3.5344662682137167,12.457189518,7.367,0.0,1.781,55.434
729001.48,4372348.11,70.09,10.0,3.535164399914515,12.71730567,7.304,0.0,1.766,57.2
729000.87,4372346.47,70.09,10.0,3.536037064540511,12.948573538,7.228,0.0,1.75,58.95
729000.27,4372344.85,70.09,10.0,3.536909729166509,13.182054252,7.133,0.0,1.728,60.678
728999.66,4372343.24,70.09,10.0,3.5379569267177056,13.422928294,7.025,0.0,1.722,62.399
728999.07,4372341.68,70.1,10.01,3.5388295913437022,13.665380134,6.899,0.0,1.668,64.067
728998.49,4372340.13,70.1,10.01,3.5395277230445004,13.938958727,6.756,0.0,1.655,65.722
728997.92,4372338.61,70.1,10.01,3.5402258547452976,14.175326671,6.598,0.0,1.623,67.346
728997.36,4372337.14,70.1,10.01,3.5409239864460957,14.411348814,6.418,0.0,1.573,68.919
728996.82,4372335.72,70.1,10.01,3.541796651072093,14.644452117,6.235,0.0,1.519,70.438
728996.29,4372334.32,70.1,10.01,3.54284384862329,14.881864225,6.042,0.0,1.497,71.935
728995.78,4372332.99,70.1,10.01,3.544065579099686,15.145148493,5.845,0.0,1.424,73.359
728995.29,4372331.68,70.1,10.01,3.5452873095760817,15.375909466,5.642,0.0,1.399,74.758
728994.8,4372330.42,70.1,10.01,3.546683572977677,15.604142026,5.427,0.0,1.352,76.11
728994.33,4372329.22,70.1,10.01,3.5480798363792725,15.831776459,5.216,0.0,1.289,77.399
728993.89,4372328.06,70.1,10.01,3.5496506327060673,16.059535556,4.987,0.0,1.241,78.639
728993.46,4372326.96,70.1,10.01,3.551395961958062,16.320496976,4.749,0.0,1.181,79.82
728993.05,4372325.91,70.1,10.01,3.553490357060455,16.552780027,4.502,0.0,1.127,80.948
728992.67,4372324.92,70.1,10.01,3.555933818013247,16.788735683,4.256,0.0,1.06,82.008
728992.3,4372323.98,70.1,10.01,3.5587263448164377,17.024672412,3.986,0.0,1.01,83.018
728991.97,4372323.12,70.1,10.01,3.5622170033204266,17.264713297,3.708,0.0,0.921,83.939
728991.64,4372322.31,70.1,10.01,3.5669293923008114,17.537164381,3.404,-0.001,0.875,84.814
728991.35,4372321.58,70.1,10.01,3.573212577607991,17.775490161,3.081,-0.001,0.785,85.599
728991.08,4372320.91,70.1,10.01,3.581939223867963,18.012076185,2.717,-0.001,0.722,86.322
728990.85,4372320.34,70.1,10.01,3.58892054087594,18.246497884,2.305,-0.001,0.615,86.936
728990.66,4372319.88,70.1,10.01,3.590665870127934,18.474662994,1.803,-0.001,0.498,87.434
728990.51,4372319.52,70.1,10.01,3.587873343324743,18.733588475,1.387,-0.001,0.39,87.824
728990.38,4372319.2,70.09,10.0,3.5847317506711533,18.961432899,1.396,0.0,0.345,88.17
728990.24,4372318.85,70.09,10.0,3.5828118884939593,19.188249851,1.795,0.001,0.377,88.546
728990.06,4372318.4,70.08,9.99,3.5814156250923643,19.422878554,2.248,0.001,0.485,89.031
728989.85,4372317.84,70.08,9.99,3.5814156250923643,19.660148662,2.571,0.001,0.598,89.629
728989.61,4372317.24,70.08,9.99,3.5826373555687603,19.932785414,2.732,0.0,0.646,90.275
728989.37,4372316.61,70.09,10.0,3.573736176383589,20.171912226,2.818,0.0,0.674,90.95
728989.13,4372315.96,70.09,10.0,3.5552356863124492,20.406702818,2.899,0.0,0.693,91.642
728988.87,4372315.28,70.09,10.0,3.5407494535208963,20.641811716,3.011,0.0,0.728,92.371
728988.62,4372314.59,70.09,10.0,3.536909729166509,20.90728545,3.126,0.0,0.734,93.104
728988.34,4372313.86,70.09,10.0,3.5414475852216936,21.139949837,3.264,0.0,0.782,93.886
728988.06,4372313.1,70.08,9.99,3.5486034351548703,21.37233197,3.417,0.0,0.81,94.696
728987.76,4372312.32,70.08,9.99,3.553141291210056,21.602302432,3.574,0.0,0.836,95.532
728987.44,4372311.49,70.08,9.99,3.553141291210056,21.834076942,3.749,0.0,0.89,96.421
728987.12,4372310.61,70.08,9.99,3.5501742314816656,22.098853411,3.916,0.0,0.936,97.358
728986.77,4372309.7,70.08,9.99,3.546683572977677,22.333857169,4.099,0.0,0.975,98.333
728986.42,4372308.74,70.08,9.99,3.544763710800483,22.571344571,4.283,0.0,1.022,99.355
728986.06,4372307.76,70.08,9.99,3.544763710800483,22.808935564,4.462,0.0,1.044,100.399
728985.66,4372306.72,70.08,9.99,3.5459854412768794,23.042834758,4.659,0.0,1.114,101.513
728985.26,4372305.64,70.08,9.99,3.5475562376036742,23.310175941,4.829,0.0,1.152,102.665
728984.84,4372304.52,70.08,9.99,3.5482543693044724,23.535863974,4.991,0.0,1.196,103.861
728984.4,4372303.37,70.08,9.99,3.5480798363792725,23.766789904,5.156,0.0,1.231,105.092
728983.96,4372302.17,70.08,9.99,3.5473817046784744,23.993560208,5.314,0.0,1.278,106.37
728983.49,4372300.95,70.08,9.99,3.5470326388280764,24.228250147,5.457,0.0,1.307,107.678
728983.02,4372299.69,70.08,9.99,3.546858105902876,24.496198902,5.609,0.0,1.345,109.022
728982.54,4372298.4,70.08,9.99,3.5470326388280764,24.733820122,5.749,0.0,1.376,110.399
728982.03,4372297.08,70.08,9.99,3.5473817046784744,24.973675969,5.888,0.0,1.415,111.814
728981.52,4372295.72,70.08,9.99,3.5475562376036742,25.209757422,6.031,0.0,1.452,113.266
728981.0,4372294.35,70.08,9.99,3.547730770528874,25.439230955,6.152,0.0,1.465,114.732
728980.47,4372292.95,70.08,9.99,3.547730770528874,25.702197606,6.273,0.0,1.497,116.229
728979.91,4372291.51,70.08,9.99,3.547730770528874,25.940088093,6.358,0.0,1.545,117.774
728979.35,4372290.06,70.08,9.99,3.547730770528874,26.177788054,6.438,0.0,1.554,119.328
728978.79,4372288.6,70.08,9.99,3.547730770528874,26.411678122,6.492,0.0,1.564,120.892
728978.23,4372287.12,70.08,9.99,3.547905303454073,26.643339568,6.555,0.0,1.582,122.474
728977.66,4372285.63,70.08,9.99,3.547905303454073,26.905055071,6.59,0.0,1.595,124.07
728977.08,4372284.14,70.08,9.99,3.5482543693044724,27.134100829,6.622,0.0,1.599,125.668
728976.51,4372282.63,70.08,9.99,3.5484289022296713,27.366362004,6.635,0.0,1.614,127.282
728975.93,4372281.15,70.09,10.0,3.5486034351548703,27.600323877,6.622,0.0,1.59,128.872
728975.35,4372279.65,70.09,10.0,3.5487779680800706,27.832406396,6.603,0.0,1.608,130.48
728974.77,4372278.16,70.09,10.0,3.5489525010052696,28.100482557,6.572,0.0,1.599,132.079
728974.2,4372276.67,70.09,10.0,3.5491270339304686,28.339132495,6.527,0.0,1.595,133.675
728973.63,4372275.2,70.09,10.0,3.5494760997808683,28.574628441,6.469,0.0,1.577,135.251
728973.06,4372273.75,70.09,10.0,3.5498251656312667,28.809639855,6.397,0.0,1.558,136.809
728972.5,4372272.33,70.09,10.0,3.5501742314816656,29.040915395,6.303,0.0,1.526,138.336
728971.95,4372270.91,70.09,10.0,3.5505232973320644,29.30573384,6.2,0.0,1.523,139.858
728971.4,4372269.53,70.09,10.0,3.5508723631824637,29.535435885,6.074,0.0,1.486,141.344
728970.86,4372268.18,70.09,10.0,3.5512214290328625,29.765702015,5.926,0.0,1.454,142.798
728970.34,4372266.86,70.1,10.01,3.551570494883261,29.998035681,5.751,0.0,1.419,144.217
728969.83,4372265.58,70.1,10.01,3.5520940936588596,30.233021164,5.567,0.0,1.378,145.595
728969.34,4372264.34,70.1,10.01,3.5524431595092585,30.502219618,5.384,0.0,1.333,146.928
728968.86,4372263.15,70.1,10.01,3.5529667582848568,30.743646719,5.191,0.0,1.283,148.211
728968.4,4372261.99,70.1,10.01,3.553141291210056,30.98160188,4.994,0.0,1.248,149.459
728967.95,4372260.89,70.1,10.01,3.553490357060455,31.214520015,4.797,0.0,1.188,150.647
728967.53,4372259.84,70.1,10.01,3.553490357060455,31.441871721,4.581,0.0,1.131,151.778
728967.12,4372258.82,70.1,10.01,3.553664889985655,31.704063883,4.362,0.0,1.099,152.878
728966.73,4372257.87,70.1,10.01,3.553664889985655,31.938477014,4.134,0.0,1.027,153.905
728966.37,4372256.96,70.1,10.01,3.553664889985655,32.174714417,3.883,0.0,0.979,154.883
728966.02,4372256.11,70.1,10.01,3.553490357060455,32.407850076,3.632,0.0,0.919,155.802
728965.7,4372255.31,70.1,10.01,3.553141291210056,32.639576943,3.359,0.0,0.862,156.664
728965.39,4372254.58,70.1,10.01,3.5522686265840586,32.90219561,3.058,-0.001,0.793,157.457
728965.13,4372253.93,70.1,10.01,3.5501742314816656,33.133528961,2.74,-0.001,0.7,158.157
728964.89,4372253.35,70.1,10.01,3.547730770528874,33.372665134,2.369,-0.001,0.628,158.785
728964.69,4372252.86,70.1,10.01,3.5463345071272783,33.609210264,1.921,-0.001,0.529,159.314
728964.53,4372252.47,70.1,10.01,3.546159974202079,33.841526783,1.46,-0.001,0.422,159.736
728964.41,4372252.17,70.1,10.01,3.5470326388280764,34.104481083,1.146,-0.001,0.323,160.059
728964.29,4372251.9,70.1,10.01,3.5489525010052696,34.341900096,1.237,0.0,0.295,160.354
728964.16,4372251.57,70.09,10.0,3.5498251656312667,34.576770288,1.619,0.001,0.355,160.709
728964.01,4372251.15,70.09,10.0,3.5487779680800706,34.811958654,2.02,0.001,0.446,161.155
728963.82,4372250.65,70.09,10.0,3.5473817046784744,35.044263618,2.327,0.001,0.535,161.69
728963.63,4372250.1,70.09,10.0,3.546858105902876,35.307166144,2.507,0.0,0.582,162.272
728963.43,4372249.5,70.09,10.0,3.5412730522964946,35.536410825,2.621,0.0,0.632,162.904
728963.23,4372248.88,70.09,10.0,3.499908749024229,35.770521495,2.718,0.0,0.651,163.556
728963.02,4372248.24,70.09,10.0,3.4562755177243707,36.005842468,2.825,0.0,0.674,164.229
728962.81,4372247.56,70.09,10.0,3.4417892849328178,36.241532635,2.953,0.0,0.712,164.941
728962.58,4372246.86,70.09,10.0,3.4578463140511655,36.510149292,3.097,0.0,0.737,165.678
728962.33,4372246.13,70.09,10.0,3.4866442467090724,36.742888573,3.253,0.0,0.772,166.449
728962.07,4372245.35,70.09,10.0,3.509333526984998,36.974993084,3.411,0.0,0.822,167.271
728961.8,4372244.55,70.08,9.99,3.5168384427685737,37.207777965,3.58,0.0,0.844,168.116
728961.52,4372243.69,70.08,9.99,3.5117769879377905,37.472676423,3.75,0.0,0.904,169.02
728961.24,4372242.81,70.08,9.99,3.5021776770518214,37.705585848,3.927,0.0,0.923,169.944
728960.95,4372241.88,70.08,9.99,3.495894491744642,37.941568269,4.12,0.0,0.974,170.918
728960.63,4372240.9,70.08,9.99,3.495894491744642,38.176747252,4.32,0.0,1.031,171.949
728960.3,4372239.87,70.08,9.99,3.500606880725026,38.411881374,4.517,0.0,1.082,173.03
728959.95,4372238.8,70.08,9.99,3.5065410001818074,38.673714128,4.713,0.0,1.126,174.156
728959.59,4372237.69,70.08,9.99,3.510380724536195,38.908482755,4.89,0.0,1.167,175.323
728959.21,4372236.55,70.08,9.99,3.5110788562369932,39.14208472,5.048,0.0,1.202,176.525
728958.82,4372235.36,70.08,9.99,3.5100316586857963,39.371019669,5.206,0.0,1.252,177.777
728958.43,4372234.14,70.08,9.99,3.508460862359001,39.605745598,5.364,0.0,1.281,179.058
728958.02,4372232.88,70.08,9.99,3.5081117965086026,39.87526788,5.52,0.0,1.325,180.383
728957.6,4372231.59,70.08,9.99,3.5088099282094,40.112232957,5.668,0.0,1.357,181.74
728957.16,4372230.26,70.08,9.99,3.5100316586857963,40.345620715,5.798,0.0,1.401,183.14
728956.71,4372228.91,70.08,9.99,3.511253389162192,40.572654248,5.902,0.0,1.423,184.563
728956.26,4372227.54,70.08,9.99,3.5121260537881893,40.801100902,5.991,0.0,1.442,186.005
728955.79,4372226.15,70.08,9.99,3.512649652563787,41.069554584,6.067,0.0,1.467,187.473
728955.32,4372224.74,70.08,9.99,3.5128241854889874,41.305178292,6.131,0.0,1.486,188.959
728954.85,4372223.32,70.08,9.99,3.5128241854889874,41.541645014,6.175,0.0,1.496,190.455
728954.36,4372221.89,70.08,9.99,3.5131732513393854,41.777438202,6.21,0.0,1.512,191.966
728953.88,4372220.47,70.08,9.99,3.5135223171897847,42.01420897,6.233,0.0,1.499,193.465
728953.39,4372219.04,70.08,9.99,3.5138713830401835,42.28147296,6.255,0.0,1.512,194.977
728952.9,4372217.61,70.08,9.99,3.514394981815782,42.514011286,6.246,0.0,1.512,196.489
728952.41,4372216.17,70.08,9.99,3.5145695147409817,42.740747343,6.233,0.0,1.521,198.01
728951.92,4372214.74,70.08,9.99,3.5149185805913805,42.967398725,6.205,0.0,1.512,199.521
728951.42,4372213.33,70.09,10.0,3.515267646441779,43.201497743,6.164,0.0,1.496,201.017
728950.93,4372211.93,70.09,10.0,3.5156167122921778,43.470539554,6.104,0.0,1.483,202.501
728950.45,4372210.54,70.09,10.0,3.5157912452173776,43.706276968,6.024,0.0,1.471,203.971
728949.97,4372209.15,70.09,10.0,3.5161403110677765,43.946147186,5.93,0.0,1.471,205.442
728949.49,4372207.82,70.09,10.0,3.5166639098433747,44.184572455,5.803,0.0,1.414,206.856
728949.03,4372206.5,70.09,10.0,3.517187508618973,44.421444111,5.677,0.0,1.398,208.254
728948.57,4372205.21,70.09,10.0,3.5177111073945713,44.689186626,5.519,0.0,1.37,209.623
728948.13,4372203.97,70.09,10.0,3.51823470617017,44.921605441,5.348,0.0,1.316,210.939
728947.69,4372202.75,70.09,10.0,3.518758304945768,45.154465278,5.164,0.0,1.297,212.236
728947.27,4372201.6,70.09,10.0,3.519107370796166,45.383888942,4.975,0.0,1.224,213.46
728946.86,4372200.47,70.09,10.0,3.519630969571765,45.612001263,4.795,0.0,1.202,214.662
728946.47,4372199.4,70.09,10.0,3.519980035422164,45.871639373,4.589,0.0,1.139,215.801
728946.1,4372198.36,70.09,10.0,3.520154568347363,46.103953638,4.395,0.0,1.104,216.905
728945.73,4372197.39,70.09,10.0,3.519980035422164,46.33677073,4.184,0.0,1.038,217.943
728945.39,4372196.45,70.09,10.0,3.519456436646566,46.570085621,3.959,0.0,1.0,218.943
728945.06,4372195.57,70.1,10.01,3.518583772020568,46.804730097,3.708,0.0,0.94,219.882
728944.76,4372194.75,70.1,10.01,3.517187508618973,47.07729763,3.452,0.0,0.873,220.756
728944.47,4372193.98,70.1,10.01,3.515442179366979,47.315144406,3.174,0.0,0.823,221.578
728944.21,4372193.27,70.1,10.01,3.5128241854889874,47.551128384,2.882,-0.001,0.756,222.335
728943.97,4372192.66,70.1,10.01,3.5089844611345997,47.782930126,2.55,-0.001,0.656,222.99
728943.77,4372192.11,70.1,10.01,3.5058428684810097,48.015994075,2.15,-0.001,0.585,223.575
728943.6,4372191.66,70.1,10.01,3.5049702038550126,48.27768711,1.688,-0.001,0.481,224.056
728943.46,4372191.31,70.1,10.01,3.5058428684810097,48.507232455,1.289,-0.001,0.377,224.433
728943.36,4372191.02,70.1,10.01,3.508635395284201,48.740551882,1.241,0.0,0.307,224.74
728943.24,4372190.69,70.1,10.01,3.510555257461395,48.975105114,1.591,0.001,0.351,225.091
728943.1,4372190.26,70.09,10.0,3.509682592835397,49.206682525,2.024,0.001,0.452,225.543
728942.93,4372189.75,70.09,10.0,3.5077627306582038,49.476487309,2.356,0.001,0.538,226.081
728942.75,4372189.18,70.09,10.0,3.5068900660322067,49.715522639,2.555,0.0,0.598,226.679
728942.57,4372188.56,70.09,10.0,3.4957199588194423,49.953009997,2.666,0.0,0.646,227.324
728942.39,4372187.92,70.09,10.0,3.4451054105116077,50.188683206,2.751,0.0,0.665,227.989
728942.21,4372187.25,70.09,10.0,3.3990287182589567,50.422818305,2.865,0.0,0.694,228.683
728942.02,4372186.57,70.09,10.0,3.3887312756721903,50.689201635,2.995,0.0,0.706,229.389
728941.82,4372185.84,70.09,10.0,3.411420555948117,50.920798835,3.128,0.0,0.757,230.146
728941.59,4372185.09,70.09,10.0,3.4452799434368067,51.148530976,3.28,0.0,0.784,230.93
728941.35,4372184.3,70.09,10.0,3.4698890858899265,51.378147478,3.435,0.0,0.826,231.756
728941.12,4372183.47,70.08,9.99,3.476521337047505,51.608307769,3.611,0.0,0.861,232.617
728940.88,4372182.61,70.08,9.99,3.4693654871143282,51.873259718,3.779,0.0,0.893,233.51
728940.63,4372181.69,70.08,9.99,3.4587189786771626,52.107764361,3.966,0.0,0.953,234.463
728940.37,4372180.74,70.08,9.99,3.4527848592203827,52.343072197,4.158,0.0,0.985,235.448
728940.1,4372179.74,70.08,9.99,3.4540065896967787,52.576038724,4.354,0.0,1.036,236.484
728939.81,4372178.7,70.08,9.99,3.4601152420787584,52.814058253,4.547,0.0,1.08,237.564
728939.5,4372177.6,70.08,9.99,3.4669220261615363,53.086001331,4.728,0.0,1.143,238.707
728939.18,4372176.47,70.08,9.99,3.4709362834411235,53.321824271,4.905,0.0,1.174,239.881
728938.85,4372175.31,70.08,9.99,3.4716344151419207,53.557693404,5.06,0.0,1.206,241.087
728938.51,4372174.1,70.07,9.98,3.4704126846655248,53.790451928,5.205,0.0,1.257,242.344
728938.17,4372172.86,70.07,9.98,3.4686673554135306,54.054565209,5.322,0.0,1.286,243.63
728937.81,4372171.61,70.08,9.99,3.4679692237127333,54.28569289,5.43,0.0,1.301,244.931
728937.45,4372170.33,70.08,9.99,3.4686673554135306,54.5152449,5.524,0.0,1.33,246.26
728937.08,4372169.03,70.08,9.99,3.470238151740326,54.743442404,5.6,0.0,1.352,247.612
728936.7,4372167.72,70.08,9.99,3.472158013917519,54.975407683,5.673,0.0,1.364,248.976
728936.32,4372166.39,70.08,9.99,3.473554277319115,55.240641224,5.727,0.0,1.383,250.359
