x(m),y(m),z(m),zRelative(m),heading(rad),t(s),s(m/s),a(m/s²),Δd(m),d(m)
727106.84,4372058.82,70.09,9.99,6.2343160881237445,0,0.078,0.0,0.000,0.000
727106.85,4372058.82,70.09,9.99,6.235014219824543,0.497053992,0.17,0.0,0.01,0.01
727106.89,4372058.8,70.09,9.99,6.23588688445054,0.732912527,0.358,0.0,0.045,0.055
727106.97,4372058.76,70.09,9.99,6.235363285674941,0.971098389,0.613,0.0,0.089,0.144
727107.11,4372058.71,70.09,9.99,6.233792489348147,1.206554768,0.863,0.0,0.149,0.293
727107.31,4372058.63,70.09,9.99,6.232396225946551,1.447708856,1.069,0.0,0.215,0.508
727107.54,4372058.53,70.09,9.99,6.23291982472215,1.718864849,1.222,0.0,0.251,0.759
727107.81,4372058.42,70.09,9.99,6.235014219824543,1.957181363,1.378,0.0,0.292,1.051
727108.12,4372058.28,70.09,9.99,6.281789043777992,2.193560363,1.543,0.0,0.34,1.391
727108.45,4372058.13,70.09,9.99,0.18954275676658416,2.429735474,1.741,0.0,0.362,1.753
727108.82,4372057.91,70.09,9.99,0.49427724416479407,2.695399694,1.929,0.0,0.43,2.184
727109.22,4372057.68,70.09,9.99,0.8464846872172498,2.928453585,2.112,0.0,0.461,2.645
727109.66,4372057.42,70.09,9.99,1.1945033400649192,3.157139077,2.314,0.0,0.511,3.156
727110.15,4372057.15,70.1,10.0,1.5006340908647247,3.386546334,2.532,0.0,0.559,3.716
727110.71,4372056.88,70.1,10.0,1.7500416409747144,3.612966434,2.755,0.0,0.622,4.337
727111.32,4372056.62,70.1,10.0,1.9573867561116407,3.870944054,2.967,0.0,0.663,5.0
727111.98,4372056.34,70.1,10.0,2.0998056230743782,4.10208706,3.185,0.0,0.717,5.717
727112.7,4372056.07,70.1,10.0,2.1254619630786946,4.334310007,3.397,0.0,0.769,6.486
727113.48,4372055.82,70.1,10.0,2.0669934331368847,4.568158728,3.602,0.0,0.819,7.305
727114.31,4372055.55,70.1,10.0,1.983392161966356,4.801714699,3.817,0.0,0.873,8.178
727115.18,4372055.27,70.1,10.0,1.9277161588277372,5.071447984,4.031,0.0,0.914,9.092
727116.09,4372054.95,70.1,10.0,1.9217820393709562,5.308984671,4.252,0.0,0.965,10.057
727117.05,4372054.58,70.1,10.0,1.9524998342060564,5.544575617,4.483,0.0,1.029,11.086
727118.06,4372054.16,70.1,10.0,1.992118808226328,5.784552335,4.709,0.0,1.094,12.179
727119.13,4372053.73,70.1,10.0,2.016902483604647,6.025556703,4.93,0.0,1.153,13.333
727120.23,4372053.28,70.1,10.0,2.0195204774826387,6.295987951,5.125,0.0,1.188,14.521
727121.39,4372052.83,70.1,10.0,2.00677957394308,6.531675489,5.302,0.0,1.244,15.765
727122.59,4372052.37,70.1,10.0,1.9908970777499317,6.766140205,5.482,0.0,1.285,17.05
727123.83,4372051.89,70.1,10.0,1.981646832714362,6.999410011,5.642,0.0,1.33,18.38
727125.1,4372051.39,70.1,10.0,1.9818213656395611,7.231002759,5.81,0.0,1.365,19.745
727126.41,4372050.87,70.1,10.0,1.9882790838719404,7.493129203,5.965,0.0,1.409,21.154
727127.76,4372050.34,70.1,10.0,1.9959585325807152,7.722640702,6.126,0.0,1.45,22.605
727129.14,4372049.78,70.09,9.99,2.0004963886359004,7.949091685,6.278,0.0,1.489,24.094
727130.57,4372049.21,70.09,9.99,2.0008454544862997,8.174833771,6.417,0.0,1.539,25.633
727132.02,4372048.62,70.09,9.99,1.9984019935335071,8.406866217,6.556,0.0,1.565,27.199
727133.51,4372048.03,70.09,9.99,1.995434933805117,8.671294435,6.699,0.0,1.603,28.801
727135.03,4372047.43,70.09,9.99,1.9936896045531227,8.905674157,6.833,0.0,1.634,30.436
727136.58,4372046.81,70.09,9.99,1.9938641374783221,9.140786615,6.958,0.0,1.669,32.105
727138.14,4372046.18,70.09,9.99,1.9952604008799177,9.379064043,7.074,0.0,1.682,33.787
727139.75,4372045.52,70.09,9.99,1.9968311972067123,9.616608859,7.199,0.0,1.74,35.527
727141.39,4372044.87,70.09,9.99,1.997878394757909,9.887401333,7.31,0.0,1.764,37.292
727143.04,4372044.2,70.09,9.99,1.9980529276831085,10.123881167,7.418,0.0,1.781,39.072
727144.73,4372043.52,70.09,9.99,1.9975293289075102,10.35659112,7.517,0.0,1.822,40.894
727146.44,4372042.83,70.09,9.99,1.9968311972067123,10.590272187,7.615,0.0,1.844,42.738
727148.16,4372042.14,70.09,9.99,1.9968311972067123,10.820162983,7.714,0.0,1.853,44.591
727149.91,4372041.43,70.09,9.99,1.997005730131912,11.083772408,7.803,0.0,1.889,46.48
727151.68,4372040.73,70.09,9.99,1.9973547959823106,11.315062322,7.892,0.0,1.903,48.383
727153.46,4372040.0,70.09,9.99,1.9977038618327096,11.54894578,7.968,0.0,1.924,50.307
727155.26,4372039.28,70.09,9.99,1.9980529276831085,11.781689135,8.035,0.0,1.939,52.246
727157.08,4372038.54,70.09,9.99,1.9982274606083081,12.019152781,8.084,0.0,1.965,54.21
727158.91,4372037.81,70.09,9.99,1.9982274606083081,12.287228141,8.116,0.0,1.97,56.181
727160.74,4372037.07,70.09,9.99,1.9984019935335071,12.522906537,8.138,0.0,1.974,58.155
727162.57,4372036.33,70.09,9.99,1.9985765264587068,12.756977647,8.151,0.0,1.974,60.129
727164.41,4372035.58,70.1,10.0,1.9987510593839062,12.986191694,8.151,0.0,1.987,62.116
727166.24,4372034.83,70.1,10.0,1.9991001252343052,13.219704226,8.142,0.0,1.978,64.093
727168.07,4372034.09,70.1,10.0,1.9992746581595042,13.485645044,8.111,0.0,1.974,66.067
727169.89,4372033.35,70.1,10.0,1.9994491910847039,13.7195707,8.075,0.0,1.965,68.032
727171.71,4372032.62,70.1,10.0,1.9996237240099033,13.951813389,8.025,0.0,1.961,69.993
727173.51,4372031.88,70.1,10.0,1.9997982569351027,14.183759071,7.972,0.0,1.946,71.939
727175.3,4372031.16,70.1,10.0,1.9999727898603024,14.420103551,7.895,0.0,1.929,73.868
727177.06,4372030.43,70.1,10.0,2.0001473227855016,14.68840132,7.81,0.0,1.905,75.774
727178.81,4372029.71,70.1,10.0,2.0006709215611,14.921621787,7.703,0.0,1.892,77.666
727180.53,4372029.01,70.1,10.0,2.0010199874114987,15.15233978,7.595,0.0,1.857,79.523
727182.22,4372028.31,70.1,10.0,2.0013690532618975,15.385740911,7.474,0.0,1.829,81.352
727183.88,4372027.64,70.1,10.0,2.001718119112297,15.619481091,7.331,0.0,1.79,83.143
727185.51,4372026.97,70.1,10.0,2.0022417178878946,15.885406017,7.179,0.0,1.762,84.905
727187.1,4372026.3,70.1,10.0,2.002765316663493,16.121270388,7.008,0.0,1.725,86.63
727188.66,4372025.67,70.1,10.0,2.0032889154390916,16.355420961,6.811,0.0,1.682,88.313
727190.17,4372025.04,70.1,10.0,2.0038125142146894,16.586838848,6.605,0.0,1.636,89.949
727191.63,4372024.43,70.11,10.01,2.0045106459154876,16.818052719,6.399,0.0,1.582,91.531
727193.04,4372023.84,70.11,10.01,2.0052087776162852,17.081235144,6.193,0.0,1.528,93.06
727194.41,4372023.27,70.11,10.01,2.005906909317083,17.315516668,5.987,0.0,1.484,94.543
727195.73,4372022.72,70.11,10.01,2.00677957394308,17.552970367,5.777,0.0,1.43,95.973
727196.99,4372022.18,70.1,10.0,2.007652238569077,17.790350828,5.557,0.0,1.371,97.344
727198.21,4372021.67,70.11,10.01,2.0085249031950743,18.025184903,5.32,0.0,1.322,98.667
727199.38,4372021.18,70.11,10.01,2.0093975678210714,18.289445523,5.087,0.0,1.268,99.935
727200.49,4372020.72,70.11,10.01,2.0106192982974678,18.521903916,4.828,0.0,1.202,101.137
727201.55,4372020.26,70.11,10.01,2.012015561699063,18.75166322,4.581,0.0,1.156,102.292
727202.55,4372019.83,70.11,10.01,2.013586358025858,18.983866284,4.308,0.0,1.089,103.381
727203.49,4372019.44,70.11,10.01,2.015331687277852,19.249304231,4.022,0.0,1.018,104.398
727204.35,4372019.06,70.11,10.01,2.017077016529847,19.485658857,3.722,0.0,0.94,105.339
727205.15,4372018.72,70.11,10.01,2.0193459445574393,19.721175043,3.404,0.0,0.869,106.208
727205.88,4372018.41,70.11,10.01,2.02213847136063,19.956867678,3.064,0.0,0.793,107.001
727206.52,4372018.13,70.1,10.0,2.0259781957150174,20.189833754,2.688,0.0,0.699,107.699
727207.08,4372017.88,70.1,10.0,2.0284216566678097,20.455232144,2.227,0.0,0.613,108.313
727207.52,4372017.68,70.1,10.0,2.0282471237426103,20.685769186,1.708,0.0,0.483,108.796
727207.86,4372017.53,70.1,10.0,2.0263272615654166,20.915032089,1.288,0.0,0.372,109.168
727208.15,4372017.41,70.1,10.0,2.0275489920418126,21.149555919,1.257,0.0,0.314,109.481
727208.48,4372017.29,70.1,10.0,2.028945255443408,21.385836215,1.61,0.0,0.351,109.833
727208.91,4372017.14,70.1,10.0,2.0266763274158155,21.653001642,2.051,0.0,0.455,110.288
727209.42,4372016.98,70.09,9.99,2.0242328664630236,21.88860844,2.388,0.0,0.535,110.823
727210.01,4372016.81,70.1,10.0,2.0240583335378237,22.122492624,2.593,0.0,0.614,111.437
727210.64,4372016.63,70.1,10.0,2.0235347347622255,22.355339934,2.704,0.0,0.655,112.092
727211.29,4372016.45,70.1,10.0,1.961226480466028,22.586181459,2.793,0.0,0.674,112.766
727211.97,4372016.28,70.1,10.0,1.8353882413972369,22.850495468,2.889,0.0,0.701,113.467
727212.66,4372016.11,70.1,10.0,1.7481217787975203,23.084040507,3.009,0.0,0.711,114.178
727213.39,4372015.92,70.1,10.0,1.7407913959391443,23.319345406,3.14,0.0,0.754,114.932
727214.14,4372015.71,70.1,10.0,1.7921040759477778,23.556732173,3.283,0.0,0.779,115.711
727214.93,4372015.46,70.1,10.0,1.8551104619447731,23.790680054,3.439,0.0,0.829,116.54
727215.75,4372015.22,70.1,10.0,1.89298410671305,24.055731515,3.599,0.0,0.854,117.394
727216.62,4372014.98,70.1,10.0,1.895078501815443,24.287559034,3.782,0.0,0.902,118.296
727217.54,4372014.74,70.09,9.99,1.8741345507915108,24.521412496,3.964,0.0,0.951,119.247
727218.5,4372014.5,70.09,9.99,1.8512707375903854,24.752271723,4.147,0.0,0.99,120.237
727219.51,4372014.24,70.09,9.99,1.84062422915322,24.981509666,4.352,0.0,1.043,121.28
727220.56,4372013.97,70.09,9.99,1.8451620852084052,25.248868265,4.548,0.0,1.084,122.364
727221.65,4372013.69,70.09,9.99,1.857902988747964,25.486269491,4.734,0.0,1.125,123.489
727222.79,4372013.38,70.09,9.99,1.8701202935119243,25.722339578,4.911,0.0,1.181,124.671
727223.97,4372013.07,70.09,9.99,1.876054412968705,25.954913376,5.073,0.0,1.22,125.891
727225.17,4372012.76,70.09,9.99,1.8755308141931066,26.188298594,5.225,0.0,1.239,127.13
727226.42,4372012.43,70.09,9.99,1.8716910898387191,26.454455604,5.377,0.0,1.293,128.423
727227.71,4372012.11,70.09,9.99,1.868025898409531,26.687401683,5.526,0.0,1.329,129.752
727229.04,4372011.77,70.09,9.99,1.867153233783534,26.917772994,5.684,0.0,1.373,131.125
727230.39,4372011.42,70.09,9.99,1.8688985630355281,27.148509473,5.83,0.0,1.395,132.519
727231.78,4372011.06,70.09,9.99,1.872040155689118,27.384414135,5.981,0.0,1.436,133.955
727233.2,4372010.69,70.09,9.99,1.8748326824923087,27.651313444,6.114,0.0,1.467,135.423
727234.66,4372010.31,70.09,9.99,1.876228945893904,27.889371936,6.26,0.0,1.509,136.931
727236.14,4372009.92,70.09,9.99,1.8764034788191037,28.125216141,6.396,0.0,1.531,138.462
727237.66,4372009.52,70.09,9.99,1.876054412968705,28.360772284,6.522,0.0,1.572,140.034
727239.21,4372009.11,70.09,9.99,1.8755308141931066,28.590783934,6.649,0.0,1.603,141.637
727240.78,4372008.7,70.09,9.99,1.8757053471183058,28.854153717,6.775,0.0,1.623,143.26
727242.4,4372008.27,70.09,9.99,1.876228945893904,29.086966051,6.892,0.0,1.676,144.936
727244.03,4372007.84,70.09,9.99,1.8771016105199012,29.319749871,7.009,0.0,1.686,146.621
727245.69,4372007.4,70.09,9.99,1.8777997422206991,29.555594045,7.113,0.0,1.717,148.339
727247.37,4372006.95,70.09,9.99,1.8783233409962974,29.789829106,7.205,0.0,1.739,150.078
727249.06,4372006.5,70.09,9.99,1.8786724068466962,30.055117404,7.278,0.0,1.749,151.827
727250.77,4372006.04,70.09,9.99,1.8786724068466962,30.288877683,7.322,0.0,1.771,153.598
727252.5,4372005.58,70.09,9.99,1.8788469397718959,30.523411077,7.363,0.0,1.79,155.388
727254.24,4372005.11,70.09,9.99,1.8790214726970953,30.75485088,7.398,0.0,1.802,157.19
727255.97,4372004.65,70.09,9.99,1.8795450714726933,30.986020721,7.417,0.0,1.79,158.98
727257.73,4372004.16,70.1,10.0,1.8798941373230924,31.253351086,7.432,0.0,1.827,160.807
727259.46,4372003.69,70.1,10.0,1.880243203173491,31.490604915,7.423,0.0,1.793,162.6
727261.2,4372003.22,70.1,10.0,1.88059226902389,31.72248751,7.401,0.0,1.802,164.402
727262.94,4372002.74,70.1,10.0,1.880941334874289,31.955640075,7.382,0.0,1.805,166.207
727264.65,4372002.27,70.1,10.0,1.8811158677994881,32.188975185,7.341,0.0,1.773,167.981
727266.36,4372001.81,70.1,10.0,1.8814649336498872,32.457545624,7.277,0.0,1.771,169.751
727268.06,4372001.33,70.1,10.0,1.8818139995002863,32.689994517,7.217,0.0,1.766,171.518
727269.73,4372000.87,70.1,10.0,1.8821630653506851,32.921228509,7.135,0.0,1.732,173.25
727271.4,4372000.41,70.1,10.0,1.8825121312010837,33.152388752,7.03,0.0,1.732,174.982
727273.03,4371999.95,70.1,10.0,1.8828611970514826,33.386706958,6.917,0.0,1.694,176.676
727274.64,4371999.51,70.1,10.0,1.8832102629018814,33.653815832,6.781,0.0,1.669,178.345
727276.21,4371999.06,70.1,10.0,1.8835593287522805,33.891792261,6.635,0.0,1.633,179.978
727277.74,4371998.63,70.1,10.0,1.8842574604530784,34.124101699,6.467,0.0,1.589,181.568
727279.23,4371998.22,70.1,10.0,1.8849555921538759,34.358559566,6.281,0.0,1.545,183.113
727280.68,4371997.81,70.1,10.0,1.885828256779873,34.59024487,6.084,0.0,1.507,184.62
727282.09,4371997.4,70.1,10.0,1.8868754543310697,34.854380263,5.888,0.0,1.468,186.088
727283.44,4371997.01,70.1,10.0,1.8875735860318674,35.085895727,5.689,0.0,1.405,187.493
727284.75,4371996.64,70.11,10.01,1.888271717732665,35.322099865,5.48,0.0,1.361,188.855
727286.01,4371996.27,70.11,10.01,1.8887953165082634,35.559754526,5.272,0.0,1.313,190.168
727287.22,4371995.92,70.11,10.01,1.8893189152838619,35.824714416,5.05,0.0,1.26,191.427
727288.38,4371995.58,70.11,10.01,1.8900170469846596,36.058422309,4.819,0.0,1.209,192.636
727289.48,4371995.26,70.11,10.01,1.890715178685457,36.289617503,4.582,0.0,1.146,193.782
727290.52,4371994.95,70.11,10.01,1.8915878433114541,36.523900076,4.329,0.0,1.085,194.867
727291.5,4371994.67,70.11,10.01,1.8922859750122523,36.75435725,4.07,0.0,1.019,195.886
727292.43,4371994.38,70.11,10.01,1.8933331725634486,37.017583913,3.795,0.0,0.974,196.86
727293.28,4371994.13,70.11,10.01,1.8943803701146456,37.254844973,3.504,0.0,0.886,197.746
727294.07,4371993.9,70.11,10.01,1.8956021005910413,37.493196724,3.188,0.0,0.823,198.569
727294.79,4371993.69,70.11,10.01,1.8971728969178363,37.728242857,2.843,0.0,0.75,199.319
727295.41,4371993.49,70.11,10.01,1.8985691603194317,37.963837255,2.451,0.0,0.651,199.971
727295.93,4371993.34,70.11,10.01,1.89909275909503,38.226809953,1.98,0.0,0.541,200.512
727296.35,4371993.21,70.11,10.01,1.8982200944690328,38.458153481,1.515,0.0,0.44,200.952
727296.69,4371993.11,70.11,10.01,1.895427567665842,38.687037463,1.44,0.0,0.354,201.306
727297.07,4371992.99,70.11,10.01,1.8949039688902436,38.919829917,1.792,0.0,0.398,201.704
727297.54,4371992.82,70.1,10.0,1.8989182261698305,39.153932188,2.275,0.0,0.5,202.204
727298.12,4371992.62,70.1,10.0,1.9025834175990186,39.422258172,2.615,0.0,0.614,202.818
727298.74,4371992.4,70.1,10.0,1.903107016374617,39.658680384,2.78,0.0,0.658,203.476
727299.39,4371992.17,70.1,10.0,1.934173877060116,39.894020132,2.868,0.0,0.689,204.165
727300.06,4371991.92,70.1,10.0,1.9961330655059148,40.125569677,2.947,0.0,0.715,204.88
727300.74,4371991.66,70.1,10.0,2.0399408297309725,40.358792446,3.045,0.0,0.728,205.608
727301.45,4371991.4,70.1,10.0,2.045002284561756,40.621686656,3.165,0.0,0.756,206.364
727302.2,4371991.15,70.1,10.0,2.020916740884234,40.854673127,3.311,0.0,0.791,207.155
727302.97,4371990.88,70.1,10.0,1.9903734789743337,41.087573413,3.46,0.0,0.816,207.971
727303.79,4371990.6,70.1,10.0,1.9720475218283928,41.322308745,3.61,0.0,0.866,208.837
727304.63,4371990.3,70.1,10.0,1.970825791351997,41.560043396,3.782,0.0,0.892,209.729
727305.51,4371989.98,70.09,9.99,1.9807741680883648,41.828174428,3.955,0.0,0.936,210.666
727306.44,4371989.63,70.09,9.99,1.99142067652553,42.060639079,4.13,0.0,0.994,211.659
727307.39,4371989.28,70.09,9.99,1.9959585325807152,42.294169632,4.309,0.0,1.012,212.672
727308.4,4371988.91,70.09,9.99,1.993515071627923,42.526213039,4.499,0.0,1.076,213.747
727309.45,4371988.53,70.09,9.99,1.9872318863207434,42.756923164,4.682,0.0,1.117,214.864
727310.54,4371988.13,70.09,9.99,1.9814722997891623,43.01824357,4.857,0.0,1.161,216.025
727311.67,4371987.72,70.09,9.99,1.9786797729859715,43.252585769,5.022,0.0,1.202,217.227
727312.83,4371987.28,70.09,9.99,1.9790288388363704,43.487594725,5.179,0.0,1.241,218.468
727314.03,4371986.84,70.09,9.99,1.9809487010135638,43.723325621,5.313,0.0,1.278,219.746
727315.25,4371986.38,70.09,9.99,1.9826940302655585,43.960255171,5.443,0.0,1.304,221.05
727316.51,4371985.91,70.09,9.99,1.9832176290411565,44.227816864,5.541,0.0,1.345,222.395
727317.78,4371985.44,70.09,9.99,1.9828685631907579,44.462695524,5.626,0.0,1.354,223.749
727319.07,4371984.96,70.09,9.99,1.9819958985647608,44.694097432,5.707,0.0,1.376,225.125
727320.37,4371984.46,70.09,9.99,1.9812977668639629,44.924013988,5.77,0.0,1.393,226.518
727321.69,4371983.97,70.09,9.99,1.9811232339387637,45.152375296,5.823,0.0,1.408,227.926
727323.02,4371983.46,70.09,9.99,1.9812977668639629,45.419048964,5.868,0.0,1.424,229.351
727324.37,4371982.96,70.09,9.99,1.9818213656395611,45.65521389,5.894,0.0,1.44,230.79
727325.71,4371982.45,70.09,9.99,1.9823449644151594,45.893166878,5.917,0.0,1.434,232.224
727327.05,4371981.93,70.09,9.99,1.9826940302655585,46.125194018,5.917,0.0,1.437,233.661
727328.39,4371981.42,70.09,9.99,1.9830430961159573,46.360803467,5.908,0.0,1.434,235.095
727329.73,4371980.9,70.09,9.99,1.9832176290411565,46.626140809,5.876,0.0,1.437,236.532
727331.07,4371980.4,70.09,9.99,1.983392161966356,46.857029885,5.835,0.0,1.43,237.963
727332.38,4371979.89,70.1,10.0,1.983741227816755,47.086734782,5.772,0.0,1.406,239.368
727333.7,4371979.38,70.1,10.0,1.984264826592353,47.320086265,5.705,0.0,1.415,240.784
727334.99,4371978.89,70.1,10.0,1.9849629582931512,47.556630286,5.611,0.0,1.38,242.163
727336.26,4371978.39,70.1,10.0,1.9858356229191483,47.825725034,5.494,0.0,1.365,243.528
727337.49,4371977.92,70.1,10.0,1.9867082875451454,48.061010879,5.364,0.0,1.317,244.845
727338.7,4371977.44,70.1,10.0,1.9879300180215413,48.295617256,5.216,0.0,1.302,246.147
727339.86,4371976.99,70.1,10.0,1.9891517484979375,48.529661014,5.041,0.0,1.244,247.391
727340.99,4371976.54,70.1,10.0,1.9907225448247323,48.759631115,4.853,0.0,1.216,248.607
727342.07,4371976.12,70.1,10.0,1.992642407001926,49.0221132,4.674,0.0,1.159,249.766
727343.1,4371975.72,70.1,10.0,1.9949113350295187,49.256077216,4.49,0.0,1.105,250.871
727344.11,4371975.31,70.1,10.0,1.9973547959823106,49.491194112,4.288,0.0,1.09,251.961
727345.06,4371974.94,70.1,10.0,1.9999727898603024,49.726400298,4.082,0.0,1.02,252.981
727345.96,4371974.58,70.11,10.01,2.0029398495886928,49.963073918,3.867,0.0,0.969,253.95
727346.82,4371974.23,70.11,10.01,2.0062559751674818,50.228658362,3.638,0.0,0.928,254.878
727347.62,4371973.91,70.11,10.01,2.010095699521869,50.461710193,3.401,0.0,0.862,255.74
727348.36,4371973.59,70.11,10.01,2.0149826214274538,50.693638638,3.141,0.0,0.806,256.546
727349.05,4371973.31,70.11,10.01,2.021614872585032,50.924724334,2.863,0.0,0.745,257.291
727349.66,4371973.05,70.11,10.01,2.030166985919804,51.153746606,2.55,0.0,0.663,257.954
727350.2,4371972.83,70.11,10.01,2.0376719017033795,51.419959422,2.187,0.0,0.583,258.537
727350.65,4371972.64,70.11,10.01,2.039766296805773,51.655589322,1.749,0.0,0.488,259.026
727351.01,4371972.48,70.11,10.01,2.0367992370773824,51.892081705,1.346,0.0,0.394,259.42
727351.31,4371972.36,70.11,10.01,2.031737782246599,52.125836067,1.311,0.0,0.323,259.743
727351.64,4371972.2,70.1,10.0,2.029643387144206,52.39422362,1.664,0.0,0.367,260.109
727352.07,4371972.01,70.1,10.0,2.0313887163962,52.630767908,2.112,0.0,0.47,260.58
727352.57,4371971.77,70.1,10.0,2.034181243199391,52.867535737,2.438,0.0,0.555,261.134
727353.14,4371971.51,70.1,10.0,2.035752039526186,53.097520282,2.604,0.0,0.626,261.761
727353.72,4371971.24,70.1,10.0,2.057568655176115,53.329097688,2.707,0.0,0.64,262.4
727354.34,4371970.95,70.1,10.0,2.0996310901491784,53.589048524,2.797,0.0,0.684,263.085
727354.97,4371970.64,70.1,10.0,2.1263346277046917,53.823628978,2.918,0.0,0.702,263.787
727355.64,4371970.33,70.1,10.0,2.1251128972282958,54.058666897,3.046,0.0,0.738,264.525
727356.34,4371970.02,70.1,10.0,2.104692544979962,54.295240057,3.185,0.0,0.766,265.291
727357.06,4371969.68,70.1,10.0,2.0818287317788364,54.532270699,3.341,0.0,0.796,266.087
727357.82,4371969.33,70.1,10.0,2.0682151636132806,54.798688744,3.498,0.0,0.837,266.924
727358.61,4371968.96,70.1,10.0,2.067167966062084,55.031831647,3.66,0.0,0.872,267.796
727359.44,4371968.56,70.09,9.99,2.0734511513692633,55.262427387,3.84,0.0,0.921,268.718
727360.31,4371968.14,70.09,9.99,2.0799088696016423,55.493571945,4.023,0.0,0.966,269.684
